Sample,Frequency(Hz),Amplitude CH1(dBFS)
0,0,-51.3958
1,1.5625,-55.7842
2,3.125,-70.2109
3,4.6875,-69.2445
4,6.25,-74.7128
5,7.8125,-77.0546
6,9.375,-81.6641
7,10.9375,-90.3573
8,12.5,-89.3083
9,14.0625,-79.8078
10,15.625,-86.4749
11,17.1875,-84.2598
12,18.75,-85.2726
13,20.3125,-86.7045
14,21.875,-97.5631
15,23.4375,-98.975
16,25,-93.1842
17,26.5625,-84.3425
18,28.125,-80.3975
19,29.6875,-93.4715
20,31.25,-80.5625
21,32.8125,-79.3322
22,34.375,-81.0074
23,35.9375,-84.2489
24,37.5,-87.0249
25,39.0625,-81.3
26,40.625,-84.7422
27,42.1875,-89.0677
28,43.75,-85.381
29,45.3125,-85.4324
30,46.875,-90.2914
31,48.4375,-83.1436
32,50,-77.9219
33,51.5625,-69.8975
34,53.125,-63.978
35,54.6875,-62.7772
36,56.25,-64.3444
37,57.8125,-67.5067
38,59.375,-71.4798
39,60.9375,-71.5848
40,62.5,-76.1694
41,64.0625,-79.1367
42,65.625,-77.9172
43,67.1875,-76.4554
44,68.75,-78.7892
45,70.3125,-80.6922
46,71.875,-78.3452
47,73.4375,-74.7814
48,75,-72.7965
49,76.5625,-70.8748
50,78.125,-70.3229
51,79.6875,-70.3731
52,81.25,-69.1986
53,82.8125,-68.6806
54,84.375,-70.2161
55,85.9375,-73.8957
56,87.5,-80.9858
57,89.0625,-83.3142
58,90.625,-83.0532
59,92.1875,-93.4763
60,93.75,-88.6394
61,95.3125,-85.673
62,96.875,-83.144
63,98.4375,-79.2685
64,100,-88.3775
65,101.563,-86.9718
66,103.125,-90.3227
67,104.688,-80.1449
68,106.25,-83.7993
69,107.813,-79.3011
70,109.375,-78.6591
71,110.938,-80.9786
72,112.5,-82.5617
73,114.063,-83.8403
74,115.625,-84.9174
75,117.188,-93.9016
76,118.75,-99.7252
77,120.313,-97.6538
78,121.875,-81.1771
79,123.438,-81.1272
80,125,-87.312
81,126.563,-87.2048
82,128.125,-76.8982
83,129.688,-74.9526
84,131.25,-78.1276
85,132.813,-82.5871
86,134.375,-79.4252
87,135.938,-74.3596
88,137.5,-66.0295
89,139.063,-65.8669
90,140.625,-75.7453
91,142.188,-84.6495
92,143.75,-83.0925
93,145.313,-90.7616
94,146.875,-87.7718
95,148.438,-82.7698
96,150,-90.6524
97,151.563,-87.9153
98,153.125,-83.2259
99,154.688,-83.7321
100,156.25,-90.4918
101,157.813,-89.6436
102,159.375,-87.0152
103,160.938,-79.7698
104,162.5,-80.57
105,164.063,-87.0915
106,165.625,-96.2701
107,167.188,-81.2545
108,168.75,-80.9847
109,170.313,-86.073
110,171.875,-87.2766
111,173.438,-80.7168
112,175,-84.5792
113,176.563,-86.538
114,178.125,-94.7974
115,179.688,-85.6966
116,181.25,-90.0874
117,182.813,-87.8596
118,184.375,-81.3365
119,185.938,-82.2243
120,187.5,-91.453
121,189.063,-84.1322
122,190.625,-81.2358
123,192.188,-81.0997
124,193.75,-81.5268
125,195.313,-85.8157
126,196.875,-82.1268
127,198.438,-85.582
128,200,-88.971
129,201.563,-82.2912
130,203.125,-88.3722
131,204.688,-81.5844
132,206.25,-84.9277
133,207.813,-83.3535
134,209.375,-94.8088
135,210.938,-88.9157
136,212.5,-82.1997
137,214.063,-79.932
138,215.625,-83.9771
139,217.188,-90.6998
140,218.75,-80.8946
141,220.313,-78.2413
142,221.875,-79.2472
143,223.438,-82.7322
144,225,-89.7396
145,226.563,-77.7927
146,228.125,-83.0495
147,229.688,-87.6865
148,231.25,-89.868
149,232.813,-84.4283
150,234.375,-81.9978
151,235.938,-85.2256
152,237.5,-84.5702
153,239.063,-79.952
154,240.625,-96.1427
155,242.188,-88.4183
156,243.75,-92.7986
157,245.313,-90.7547
158,246.875,-88.9817
159,248.438,-80.3007
160,250,-79.503
161,251.563,-76.4395
162,253.125,-74.6841
163,254.688,-80.1886
164,256.25,-86.4121
165,257.813,-78.793
166,259.375,-85.3047
167,260.938,-91.7164
168,262.5,-85.4598
169,264.063,-91.3654
170,265.625,-90.37
171,267.188,-83.0739
172,268.75,-79.7419
173,270.313,-82.492
174,271.875,-79.72
175,273.438,-73.97
176,275,-69.807
177,276.563,-68.6252
178,278.125,-69.3385
179,279.688,-79.3956
180,281.25,-76.4477
181,282.813,-83.3518
182,284.375,-80.941
183,285.938,-78.506
184,287.5,-81.8495
185,289.063,-81.8886
186,290.625,-83.6919
187,292.188,-83.5692
188,293.75,-90.7063
189,295.313,-92.2988
190,296.875,-81.3448
191,298.438,-77.4494
192,300,-79.5965
193,301.563,-87.2369
194,303.125,-97.8397
195,304.688,-81.5672
196,306.25,-76.5819
197,307.813,-76.9502
198,309.375,-81.6106
199,310.938,-79.9412
200,312.5,-78.0041
201,314.063,-81.3628
202,315.625,-83.3235
203,317.188,-80.3914
204,318.75,-76.5811
205,320.313,-77.1759
206,321.875,-78.1455
207,323.438,-78.1966
208,325,-77.3506
209,326.563,-76.3855
210,328.125,-78.8903
211,329.688,-62.0244
212,331.25,-58.2119
213,332.813,-61.0396
214,334.375,-65.8194
215,335.938,-70.1372
216,337.5,-78.474
217,339.063,-80.633
218,340.625,-85.5629
219,342.188,-79.4151
220,343.75,-82.5053
221,345.313,-87.6106
222,346.875,-89.3722
223,348.438,-88.1234
224,350,-90.1082
225,351.563,-88.7005
226,353.125,-85.3557
227,354.688,-88.4833
228,356.25,-84.155
229,357.813,-91.7572
230,359.375,-85.8139
231,360.938,-84.4546
232,362.5,-101.534
233,364.063,-89.2735
234,365.625,-84.0429
235,367.188,-85.061
236,368.75,-91.081
237,370.313,-87.6451
238,371.875,-84.0233
239,373.438,-84.2647
240,375,-82.0253
241,376.563,-80.565
242,378.125,-86.0767
243,379.688,-82.08
244,381.25,-76.1612
245,382.813,-79.8393
246,384.375,-71.143
247,385.938,-70.0366
248,387.5,-70.7915
249,389.063,-72.3569
250,390.625,-76.6695
251,392.188,-81.9801
252,393.75,-87.341
253,395.313,-93.9319
254,396.875,-89.6018
255,398.438,-88.8542
